301.20512357744445, 17.97563602865922
307.21279575274593, 18.273671646841738
313.04377168759737, 18.38043668001657
318.8747476224488, 18.588248059590907
324.70572355730025, 18.75012928171093
330.73106535664675, 19.04294897494342
336.3676754270031, 19.151972993623307
342.19865136185456, 19.254145011052707
348.029627296706, 19.553816705535688
353.86060323155743, 19.8580814157641
359.6915791664089, 20.052113748102144
365.5225551012603, 20.393122584294012
371.3535310361118, 20.60093396386835
377.02253541721734, 20.970617879829454
383.0154829058147, 21.05789386472592
388.84645884066606, 21.3575655592089
394.67743477551755, 21.790434710309412
400.508410710369, 21.906385774975107
406.33938664522043, 21.990185729422777
412.04078533707514, 22.179600031103615
418.0013385149233, 22.451738646025774
423.83231444977474, 22.636584946872958
429.6632903846262, 22.844396326447292
435.4942663194776, 22.96034739111299
441.32524225432905, 23.32432130603202
447.56850941689726, 23.415299150441918
452.5012794627943, 23.393077570481417
458.8181700588834, 23.920197350282443
464.6491459937348, 24.118822698365918
470.4801219285863, 24.491982644775813
476.3110978634377, 24.814619417985952
482.1420737982892, 24.90760540392449
487.97304973314056, 25.25320725586179
493.80402566799205, 25.626367202271688
499.6350016028435, 25.958190006972693
505.4659775376949, 26.2762337644374
511.3966282748515, 26.488304093093504
516.715638179681, 26.667976758185915
522.5989685561474, 27.041981905402768
525.5504502021831, 27.485777708938517
531.3814261370346, 27.49379290358656
537.2124020718861, 27.807243645305835
543.2377438712326, 27.93425547012823
548.874353941589, 28.314726719363154
554.7053298764404, 28.641956508318728
561.0346798228177, 28.874772376788584
572.3278349239914, 29.31836657204729
578.0292336158461, 29.610992498979044
584.3461242119353, 29.627467349653998
589.5915106832438, 29.69844270632195
595.781315906394, 29.868642963401946
600.8903614874066, 29.689222168608154
607.1841132901034, 29.91057386183617
613.0150892249549, 30.016846786181134
619.1052196457997, 30.160438782398302
624.6770410946576, 30.25132875877214
630.2488625435158, 30.12538663727299
636.8017688322059, 30.04456792427512
642.169968899212, 29.88058376205208
648.0009448340635, 29.688802771773823
653.8319207689149, 29.547544954695326
659.6039979569496, 29.48018156601524
665.4938726386179, 29.269622336283753
671.6487916809609, 29.022787694339755
677.1558245083206, 28.876874324236383
682.9868004431721, 28.620791113522078
689.3036910392611, 28.299351234354525
694.1503783013493, 28.28200315251027
700.4797282477264, 28.105157347377933
706.3107041825779, 27.881225246881655
712.1416801174294, 27.88235091791155
717.9726560522807, 27.589523581233788
723.9332092301289, 27.324279353940394
730.1329819335094, 27.40179094441252
735.4655838568351, 27.294354570870382
741.6205028991783, 27.086560562762553
746.6647598586926, 27.024544427319313
753.1528775258844, 26.920682513627753
758.7894875962409, 26.64205600339317
764.6204635310924, 26.3905658084243
770.4514394659436, 26.621342266725797
776.2824154007951, 26.40200318197495
782.1133913356466, 26.228594254678427
787.9443672704981, 26.073557390363625
793.6457659623527, 25.74625742068335
799.6063191402009, 25.726739535770577
805.4372950750524, 25.351237915675036
811.2682710099039, 25.278875334778018
817.0992469447554, 25.155989580681243
822.9302228796066, 25.101999062765955
828.5020443284648, 24.727825317570495
831.0288005669004, 24.575365684027226
836.3738618405141, 24.693519450646484
842.3668093291114, 24.389240843244863
848.1977852639629, 24.349029372565866
854.0287611988144, 24.203178539741934
859.8597371336657, 24.162967069062937
865.6907130685172, 23.971186078784683
871.5216890033687, 23.885044450651364
877.3526649382202, 23.748379649318295
882.6977262118339, 23.520908981093783
889.1765883616688, 23.463598775928297
894.1977065277911, 23.382878038001554
