302.0198119128929, 9.794322096954723
307.0311088009584, 9.835350232961344
312.0610980387796, 9.797147660907626
316.9300879054705, 9.864093197896404
322.10324782035923, 9.826183159596598
326.71786277246815, 9.915281916789903
332.0533263701557, 9.975520925331622
337.2572478012572, 9.97437994673416
341.88022067458735, 10.073546984793367
347.31943128392777, 10.151867564756486
352.094401897882, 10.131837070838566
356.9508892862304, 10.280696306571633
362.2263755266605, 10.421277543471549
367.2675531263515, 10.518959508720151
372.3876980452246, 10.637358182541183
373.90322032537404, 10.543665867978019
377.8657755104757, 10.754187049875494
381.1999694849394, 10.703737443252855
382.3262194998611, 10.832357915594189
387.5224930920686, 10.875992265805532
392.31390322971816, 10.976475651342579
397.90136050639353, 11.101140412419156
402.36143463113814, 11.192571630427956
407.54927443926636, 11.209977007882335
412.8571769289125, 11.217960155577709
417.6086166039429, 11.249529677972106
419.92090335161663, 11.123112956782045
422.57274797463924, 11.313310539652699
425.1591771406743, 11.110719314831682
429.97338332207255, 11.18299686353725
434.7766282167337, 11.273910107438258
439.8356300721118, 11.362385085270626
444.87598526689567, 11.458507770815322
449.8576755783047, 11.443401837481261
454.87390689581287, 11.49378565171133
459.76334917758084, 11.506138753937448
461.60500321890845, 11.462915861117509
465.9473226677013, 11.643359016871175
470.9585049549827, 11.753145149909829
475.9146978286396, 11.825491157331246
480.9481996491974, 11.908619845343377
485.7803548176937, 11.997011266837179
489.87735812768705, 11.906354942229155
493.65362443768504, 12.108229578241101
498.349794041005, 12.22069290102042
502.9754172945003, 12.336767129611953
508.2098571102051, 12.363177605826515
513.8522654353504, 12.42950655102273
518.8356017749514, 12.551304790870507
523.5629435701956, 12.62731108687365
528.5425809152808, 12.703872232054131
533.5401710548944, 12.718912372995621
538.5808003846472, 12.815554818441626
543.449672407654, 12.83226984571968
548.5312235612619, 12.856335136436229
553.7639337811228, 13.049596342066902
559.1044824625778, 13.128038109037043
564.146182128129, 13.179281481525333
568.6484120104402, 13.266172241204035
574.1317501692607, 13.328503745060068
578.840664002697, 13.369570625475646
583.7839023157819, 13.377119205983174
588.5824485370737, 13.401788063577275
594.0044957172582, 13.379269843192063
598.7492983998563, 13.370337890091854
603.7882437576566, 13.463787524715567
608.6849443962351, 13.448797832440807
609.9020993074305, 13.301838819378052
614.0757557966068, 13.50494849210003
618.7701277547144, 13.488267291840453
621.4303641713011, 13.371862393816834
623.8803736598553, 13.512132401370181
628.7490550937887, 13.487531999194063
633.5285489347319, 13.476077543647634
637.8145914768112, 13.318708406562463
641.0789606638508, 13.21405605061818
642.8954886227071, 13.379307625441031
647.2744246709362, 13.296424014091222
650.2747213393242, 13.133161452949748
653.1510697090265, 13.311833414836011
654.4768595219693, 13.10208507424326
660.0399060346581, 13.128520018961915
664.96272997349, 13.077056551569774
670.1776840145145, 13.104063232179861
674.794491544297, 13.066056063532079
679.3896112353915, 13.07686710818058
685.1641401912344, 12.999845066864403
689.2988219820476, 12.99137758594065
695.0868762734955, 12.939999580931387
699.2485643901558, 12.935307664182723
702.2942038962065, 12.797095940301215
706.9058119994095, 12.886597443938655
711.8696835378308, 12.837707117019924
716.925116155912, 12.962416597136265
721.5772805696778, 13.059702868138126
726.2327448454776, 13.012030640373265
731.781168251613, 13.065174272333767
736.2009165040622, 13.070986857079447
741.3806145036098, 13.0314624235188
743.6797570754636, 12.947119865863751
748.7058572518573, 13.016215036540714
753.5506367272993, 12.946296521065305
758.6015950710644, 12.857752414226175
762.45702711144, 12.744187040014996
767.1561588839468, 12.777484520426682
771.7686920838867, 12.690419149826745
775.7431176177423, 12.569224811040101
780.4356037608616, 12.586311753314444
785.3053271687581, 12.500208121288564
790.0885796268553, 12.490383536231153
794.8182269181531, 12.457018162941026
800.4490911285463, 12.340163426905548
805.053203598453, 12.346343212350511
810.0217354313481, 12.306288803753926
814.9803984053576, 12.247523038710447
819.7938333296628, 12.094465001738715
824.0595414558119, 11.974189274805173
828.6497055033589, 11.890444038972003
833.8875707660424, 11.810213537182289
838.5866723081266, 11.781483722481083
839.1381587631795, 11.608718382291775
844.454470401577, 11.559137966277644
848.6443992218899, 11.514468586855568
853.7906023665961, 11.377165816207127
856.955798659669, 11.276221174881266
861.061280507363, 11.184987509127975
864.989028631164, 11.05676245427144
869.8646002654746, 11.015049186958734
873.8788392911537, 10.867297331181751
878.6454487885522, 10.8314141602741
883.1549073489163, 10.727240130688656
886.220901376418, 10.627620579478867
890.4757251018718, 10.709575421553563
893.4305893818405, 10.561053481486407
