303.83683263140625, 36.39941932432356
308.83065087522004, 36.4257147460081
313.8358606374531, 36.52400456410257
318.8837885937585, 36.89227336873432
323.8994405812092, 37.05655805020457
329.0176643744039, 37.15240027399423
333.9829556821992, 37.715101730023974
338.98436827162584, 37.78939341598179
344.01236107069747, 38.031672026896146
349.0678833726157, 38.44793709580118
354.10441981050184, 38.744211504022985
359.1485505940008, 39.088482176518085
364.1860363250886, 39.390756117774046
369.2501022658213, 39.86101698398656
374.33790053659425, 40.48126617605307
379.39342283851255, 40.89753124495812
384.43090856960026, 41.199805186214064
389.50067026954264, 41.706063250631544
394.5362574142272, 41.99633812581918
399.6079177005728, 42.51459525630497
404.67388222770876, 42.9968551885858
409.75883261887685, 43.599105781549824
414.82194926640796, 44.063367114728166
419.87842086152784, 44.485631716667356
424.9443853886638, 44.96789164894818
429.9599187144644, 45.13142638878915
435.07631444293577, 45.932411513509805
440.14132967687016, 46.408671912756475
445.21298996321576, 46.92692904324224
450.30933187280317, 47.60117403261623
455.3430204310845, 47.879449841735536
460.82788736430314, 48.33350690585874
465.30365367546034, 48.955873971058026
470.59407443178236, 49.662203488491045
475.6325094560717, 49.97047696278116
480.7136626744334, 50.54872942360856
485.78722154718224, 51.07898562016267
490.86172971313266, 51.615241349750946
496.2210051668041, 51.90352270921521
500.97467290337244, 52.45977055362934
506.0292459120891, 52.8700360895002
511.3688862370831, 53.09722970121547
516.1421891023289, 53.71456529337861
521.1502467441667, 53.83085371057558
526.2209577373108, 54.34311130802719
531.223319619939, 54.42340252701919
536.2598560578251, 54.719676935241
541.3030375481225, 55.057948074701926
546.3091966035572, 55.162237425830554
551.2963697949597, 55.14653611627597
556.276897933951, 55.08883807548226
561.2792598165793, 55.16912929447423
566.2569400759656, 55.09343265457804
571.2374682149568, 55.0357346137843
576.1686331074645, 54.666060855214184
581.1263782096172, 54.46437402160058
586.1173485738261, 54.47267084418263
591.0513613459386, 54.120995684714984
596.0176500869057, 53.97330464840884
600.9820402414697, 53.81361454603439
605.9625683804609, 53.75591650524065
610.8643051837187, 53.200257222611526
615.8248981654763, 53.01656898810039
620.743722246363, 52.56890130008618
625.7233010921526, 52.50520372625829
630.700981351539, 52.42950708636208
635.2023374033768, 51.8729577017545
640.5813477073849, 51.804150696870906
645.5580786735698, 51.72245452394054
650.4930407388838, 51.37677889750705
655.4488872546333, 51.16309299782513
660.4341618596325, 51.135392622202204
665.4175378782286, 51.09569318051096
670.3600942891555, 50.79801381835077
675.3520139465661, 50.81231017396699
680.302164703106, 50.56262707608012
685.2779463760892, 50.47493137011557
690.259423808282, 50.423232862356016
695.2209660832411, 50.24554416087905
700.1976970494259, 50.163847987948685
705.2105011572719, 50.31013407031645
710.198623641876, 50.30043229379602
715.1715574352544, 50.194737988729
720.1255053646007, 49.969053022978756
725.1107799695999, 49.94135264735584
730.094155988196, 49.90165320566459
735.1155037348565, 50.10193508533982
740.0988797534525, 50.06223564364858
745.1059881020888, 50.172524527811376
750.1387273671685, 50.44480080389654
755.1296977313774, 50.453097626478595
760.1320596140056, 50.5333888454706
765.1315736170291, 50.59568146536009
770.1880452121488, 51.01794606729929
775.193254974382, 51.11623588539376
780.1946675638086, 51.190527571351595
785.184688634816, 51.19282486089948
790.1889491038474, 51.28511514595979
795.1998546252901, 51.419402162259246
800.2430361155875, 51.75767330172019
805.2491951710222, 51.86196265284883
810.2572528128601, 51.97825107004577
815.3099272351735, 52.37651753984834
820.3151369974066, 52.47480735794281
825.3212960528413, 52.57909670907145
830.3189114694615, 52.62939026289263
835.3383606297186, 52.81767307649953
840.3843899996208, 53.17394281506296
845.3782082434345, 53.20023823674748
850.3758236600548, 53.25053179056867
855.5533576331522, 53.24341683802261
860.1081130108707, 53.67402609231672
865.4474612456488, 53.89937369386763
870.4336851438497, 53.877672851278874
875.4341484400748, 53.94596500420255
880.4336624430982, 54.00825762409205
885.4293792733151, 54.04655211184492
890.4393355015562, 54.174839595110186
894.7911427012614, 54.44380283792174
