306.4483204743686, 9.193067880265993
312.35557756172324, 9.225897256768427
317.6990206980669, 9.358402256779506
322.78400300428314, 9.530224911622426
327.46135659234517, 9.562645672041807
332.4870927485015, 9.7722134885508
337.9120147500289, 9.809816036468
342.52512370749326, 9.957755439746286
347.54934606668814, 10.066980155192987
352.47170450270426, 10.212663008385707
357.61965967981394, 10.354535293452013
363.05750961979413, 10.432990126879915
367.36186777664307, 10.597625681727298
372.72460941153275, 10.784222626855652
377.76132828200537, 10.932936317939856
382.78190582541094, 11.030643415492282
387.80092130490686, 11.12341439109003
392.8230609122221, 11.226057610597149
397.8488453353268, 11.340218447998534
403.28577799666664, 11.409802212006525
407.8738590950709, 11.48462604957163
412.7087245958775, 11.592729984163118
417.9576203428328, 11.623556707951966
422.61359828469926, 11.715843096612389
428.2731400730182, 11.88473349993425
432.51969385462365, 11.866707229012295
437.9983657314443, 12.07415938285601
443.00852951545176, 12.138959000710532
447.7259039453828, 12.17441459716116
453.0137571323396, 12.220842390857587
458.0390208674744, 12.333357854274084
463.075219049977, 12.48042617137338
468.09423452947294, 12.573197146971129
472.9114429226779, 12.585688162098027
478.0208542840736, 12.737462586128729
482.9002132394572, 12.829962803982124
487.7458132371685, 12.867672228350177
493.1955601825912, 13.0567965127786
498.06835997153854, 13.13546107498171
503.58504973584616, 13.238086757428729
507.9974454840735, 13.410887963536375
513.2997392509495, 13.51673061035395
518.3762386823228, 13.680889909271528
523.5413592061736, 13.748366897991804
528.0347682170963, 13.76981700606376
532.944736615849, 13.869456031216064
538.4286613664726, 14.087534797360895
543.4362217106307, 14.144107545290929
548.4359717352401, 14.175999683447532
553.2541347230566, 14.19150721754674
558.4766061340814, 14.3697685045675
563.4675044632024, 14.373689284980877
568.4833958148789, 14.456588016669244
573.5237595011408, 14.616819325647718
578.5328819092085, 14.67832819553244
583.5289871180287, 14.69870271579477
588.567268052411, 14.85235252883366
593.563373261231, 14.872727049095992
598.561040533961, 14.89803769131301
603.9818560430324, 15.031874583257107
608.2455301468099, 15.08124985311428
613.6014249574116, 15.123698650589578
618.6334576361552, 15.257603975809719
623.6660110028686, 15.393154675014753
628.8517667914958, 15.461520204404692
633.7144557212583, 15.611604105908153
638.707436802259, 15.622106382261112
643.521644875673, 15.712712597623984
649.1709023756603, 15.808216208773775
653.6397859103542, 15.915916470718589
658.7637125773863, 15.930666073226057
663.7715332655291, 15.988061508148537
668.7169919776557, 16.07471823674812
673.4005707666679, 16.219017169828398
679.0239157959262, 16.256527249140955
683.6578044184828, 16.35665348469689
689.2300834089995, 16.256684757251843
693.4939766674191, 16.299423701979183
698.8137815712521, 16.350340576968446
704.1166459868465, 16.434773639080973
708.6609957036262, 16.35448739721817
711.0276473977093, 16.244558009532014
715.2549496984473, 16.383768744636267
720.6335233628492, 16.49788272012036
725.6363975152781, 16.539647102186336
730.6574957466536, 16.638999573723662
735.6197302030314, 16.55234251626853
740.6834066918228, 16.56572035201466
745.4288580523207, 16.61179753245597
750.6033856721612, 16.598739979890713
755.6031356967707, 16.630632118047313
760.5778926988247, 16.58354630492892
765.5190653268199, 16.430333869784757
770.1356485127767, 16.48004097491163
775.533925671151, 16.542656678652385
780.5258653762119, 16.54986820703555
785.6875493594614, 16.49622476284286
790.4511673897196, 16.37918669050111
795.0542498804567, 16.386231598733907
800.8778988607507, 16.455189222440886
805.1215137497587, 16.42787605091143
806.9146788162453, 16.32395384628029
811.3175815772198, 16.380998684636378
816.3037937146117, 16.37011109918569
821.6614200193357, 16.304270105391364
826.1059761649248, 16.288169276277564
830.9857968297669, 16.36858767580427
836.2725939107951, 16.402247960688147
841.2541198564579, 16.3765520093734
846.2460595615188, 16.38376353775656
851.0111998383713, 16.433143747099987
856.6472852563176, 16.488378676989704
860.8595021648472, 16.488910522558964
866.2632837389033, 16.568920179854327
871.6471904052014, 16.47691426844703
876.2388321415066, 16.557017252862327
881.2458717976947, 16.611944626807468
886.5385608741719, 16.57717548735254
891.0486385756183, 16.651298657479433
896.201384082051, 16.569409626546033
900.9306497234949, 16.463267383881163
