312.811454836566, 48.65530264460928
318.12599673488387, 48.79244575485511
323.14885330476244, 49.21208103968339
328.15007584438746, 49.358262182106685
333.18374942939283, 49.91462453813746
338.1746958046474, 49.93091496291839
343.5749022788892, 50.06122054490562
348.0972336395603, 50.57838543169032
353.22298361092044, 50.93345755889856
357.97105446244336, 51.501003569937254
363.14526561704474, 51.721392852029766
368.5962651032449, 52.358053815231784
373.6641326654197, 53.06309984796568
378.0642171575438, 53.20149300225919
383.5924321821593, 53.8075503768005
388.1912883399041, 54.02803359612964
393.4342308346569, 54.64944839943135
398.664801852046, 55.30560673418594
403.52753884097183, 56.09031808237888
408.71592349936657, 56.21324083944375
413.0875393512869, 56.165403040754526
418.51308795950956, 56.2998436653846
423.8898148979415, 56.73295695106084
428.2745169701111, 56.73107959799106
432.4112600317711, 56.437282995429285
434.9194094504349, 57.64945956645393
439.1949041474894, 57.59497513421244
444.5229906401397, 58.251514436648904
449.56910379254083, 58.96511292456255
454.5714080336785, 59.124966774106085
459.76738857503943, 59.275644704246375
464.6133352181413, 59.91638286884178
469.62753817591846, 60.22663649670807
474.6464735778136, 60.596708218225444
480.05469318999917, 60.972843649365316
484.6934036317724, 61.45136058339229
494.91045900567644, 62.06740942605677
499.8470479875694, 62.55698778824279
504.6406047605707, 63.09863649260835
509.94128425804774, 63.80482036736154
514.870566007013, 64.4750624558112
519.8562390873934, 64.42469843338091
524.8504725820557, 65.05589506346178
530.3356559195832, 65.39465152618712
534.9079072108935, 65.46996823911186
539.6586530893218, 66.41951911006403
545.1735039401789, 66.69957981379753
550.0099555823466, 67.15204437896841
555.015404114659, 67.79268592741113
560.1713777110308, 68.08874081631532
564.9324317739773, 68.95331573247715
570.2335481666594, 69.1360318585871
574.8690724101428, 69.52877072115197
580.5689563196962, 70.54273969077774
585.2065130826252, 70.55162887343081
590.2556009141862, 71.30282730592513
595.2411387818773, 71.25075419510482
600.2225693802179, 71.58780905814292
605.7184794754427, 72.17057502002983
610.2959167972265, 72.33533303380648
615.3041703966838, 72.5703867725114
620.2926829435349, 72.55591360627177
625.0237308844831, 72.9729543527575
630.1684012056954, 72.45351632518216
635.2855335472832, 72.85772996233916
640.2726939672434, 72.82616591219923
645.5213821108572, 72.27793218246906
649.4194742350937, 71.85887524738288
655.0279075342465, 71.88842555760934
659.6606231360798, 71.346073732402
664.2634828991472, 71.37143808758643
669.639270782051, 71.33763646060311
674.5492864633645, 70.96802626506448
679.9567478836137, 70.26067135828201
684.415722414148, 69.76420533897841
687.6296851283977, 69.39366740410907
691.1027256584232, 69.88158277899333
696.2712242207276, 69.68488849385979
701.3311851704736, 69.2083873878661
705.7762331065449, 69.04098944291556
708.026156840867, 68.23881762947214
712.7608682081349, 68.20161430877944
716.4064924536307, 67.50715333949996
721.8990130859268, 67.62572208948524
726.4981641580936, 67.60420859168595
731.1085632465724, 67.86941380561426
736.4862766923006, 67.71540750718924
741.4723554107482, 67.67017074992906
746.7703585168687, 67.10821479518717
750.9871806608425, 66.85805088824071
756.4946449498872, 66.9107027093703
761.5240699543291, 66.26664897510976
766.4498317432391, 66.03236324447884
771.4635208344508, 65.69660800420432
776.2186005712989, 65.3778072702317
781.2767677700385, 65.28817387721949
786.1718282317222, 65.04806138110696
791.1157205911752, 64.46958904615704
796.0947682497903, 64.33547969261524
801.3242206439819, 63.74528399053424
805.6742052765715, 63.25041492031095
810.9886431651286, 63.386243347179835
815.9314087521726, 62.79352860897966
821.2662529450816, 62.24219874046264
825.4325257660889, 62.10043629720903
830.5592139873239, 61.51659100237681
836.1593692434245, 61.22876804611342
840.7296094053817, 60.896426073358256
845.6645777273553, 60.20515390466629
850.6311137051404, 59.91289690543359
855.1650545250315, 59.21166960441228
860.5600751949626, 59.276426619911256
865.5153254202987, 58.841517709723966
870.1457751205679, 57.986996694026516
875.3694083764506, 57.25858275860888
880.3917761932474, 56.4649728024105
885.2806186937406, 56.397737652281954
890.2672382629445, 56.35933724858189
895.2251927420624, 55.958610106195216
900.5151732286305, 55.29524824031148
904.3144604575041, 55.21995580557625
