308.07392705394375, 36.71668593727318
313.9174555985621, 36.83937326283938
319.76080915056093, 36.95628583196044
325.6127373409177, 37.356161466893134
331.4569658560143, 37.50194781823988
337.3066191423169, 37.8267516193858
343.154522502424, 38.09380785608038
349.0059257149221, 38.476359221677676
354.85715393480064, 38.85313583082983
360.7118820070702, 39.34540756888468
366.5618852786119, 39.68176088292089
372.4185382696965, 40.23755494187225
378.27676619435704, 40.8453218088298
384.1299193330506, 41.28562073887846
389.98604734627656, 41.824090528494395
395.8400754480679, 42.29326324076871
401.6927036089029, 42.716237901481946
407.55075654094384, 43.31823001199438
413.40898446560436, 43.92599687895195
419.2642375157326, 44.435592886342214
425.1214154846758, 45.00871121462897
431.17087534398013, 45.50334010326917
436.8345464742255, 46.11452457608653
442.68979952435365, 46.6241205834768
448.22590978457833, 47.30832422665361
453.75843269610226, 47.87414536270516
459.6140357314695, 48.39529088298569
465.34252412799606, 49.004181202560765
471.3346914036598, 49.749418771584075
477.18976946116845, 50.25324002252921
483.04817237844856, 50.866781645931916
488.90727526620685, 51.50342229511516
494.7656781834869, 52.11696391851786
500.5541015522091, 52.562444380031366
506.4733844018305, 53.04375983017623
512.3275874962414, 53.518707298895684
518.1821405758915, 54.00520428050541
524.0309188990963, 54.30113429942566
529.8810971632574, 54.643262369907
535.7293505086037, 54.921868119491855
541.5790037949064, 55.24667192063778
547.4300570221653, 55.6176737733448
553.2685107808168, 55.572893162002075
559.1076645099464, 55.55121157643988
564.9482181800324, 55.575728042438776
570.7793222486628, 55.288407660400345
576.6120012508691, 55.053060086368156
582.4446802530754, 54.81771251233596
588.283483996966, 54.78448141388349
594.1105632353467, 54.36434163360696
599.945167156368, 54.19251638047125
605.7799460700089, 54.02646588378068
611.6073752936287, 53.617875616394414
617.4346295246289, 53.20351059256301
623.2659085858788, 52.92196496696973
629.1019124478566, 52.7963377653951
634.9307416124328, 52.43394554956993
640.7620206736827, 52.152399923976645
646.5973245651822, 52.00367369662147
652.4259787371388, 51.63550672435116
658.2628575622144, 51.5387533050022
664.0953615718012, 51.29763097452487
669.9306654633007, 51.14890474716971
675.7668443178981, 51.02905230204021
681.6031981651149, 50.91497461335586
687.4346522189844, 50.639203744207705
693.2717060366793, 50.5482250813039
699.105784979842, 50.35907555883278
704.9477385908845, 50.42979007639275
710.78846725359, 50.46008129883678
716.6265710270025, 50.40375117460378
722.460299984926, 50.20305213924239
728.298928736197, 50.16404628434479
734.1403573693808, 50.217436532569366
739.9828359582818, 50.30547531946475
745.8247895693243, 50.376189837024725
751.6693680696599, 50.53352570126173
757.8036229890299, 50.51716548217584
763.3564251588966, 50.77890035239412
769.2038035411451, 51.0286323197533
775.0476820710026, 51.16286915820976
780.8903356525232, 51.256682701550275
786.7343891750003, 51.39669429645188
792.5810675867705, 51.623327238030505
798.4224962199543, 51.67671748625508
804.2731994619742, 52.03616982607182
810.1191779032662, 52.23970374186992
815.9660313076562, 52.47211143989368
821.8090348744158, 52.57747449612447
827.6546633304688, 52.769458899032294
833.5013417422391, 52.99609184061092
839.3478451613898, 53.21695002574442
845.1939985953014, 53.42625869798764
851.0359522063438, 53.49697321554762
856.8801807214404, 53.64275956689435
862.7287840520257, 53.93291482936948
868.5751124785569, 54.14799825805784
874.4121662962519, 54.05701959515402
880.2591946932613, 54.29520204962292
886.0990483928691, 54.29661948984127
891.9410020039115, 54.367334007401254
895.5105889537932, 54.39418662487113
